  alpha = -0.937500  nquad =   60  pmax = 120


  Monic polynomial recursion coefficients
    n            a(n)                       b(n)
    0     2.4060006176800746E+02     2.1770686285719166E-03
    1     2.5597413374251021E-03     3.8355497148115267E+00
    2     4.1298781439114878E+00     5.0128372015107017E+00
    3     1.1242010648429609E+01     6.6804854165578700E+00
    4     1.7891453283867477E+01     9.0657357438647495E+00
    5     2.5007783251488181E+01     1.1423941611080073E+01
    6     3.4816135423545788E+01     1.3557368732846010E+01
    7     4.7656795671197401E+01     1.5526169300001994E+01
    8     6.3453296542664702E+01     1.7383123545394731E+01
    9     8.2099044994625302E+01     1.9179042838290691E+01
   10     1.0318695112511477E+02     2.0990107843604701E+01
   11     1.2587051386295863E+02     2.2895927674382651E+01
   12     1.4931978558531151E+02     2.4925014138349592E+01
   13     1.7339310303982651E+02     2.7039591626883002E+01
   14     1.9865806204122256E+02     2.9177267225556971E+01
   15     2.2584482322844315E+02     3.1292584921446721E+01
   16     2.5545056407335031E+02     3.3365910293593089E+01
   17     2.8770356290553843E+02     3.5393983588603533E+01
   18     3.2267231943100330E+02     3.7380410441765029E+01
   19     3.6034934604594810E+02     3.9331458310267188E+01
   20     4.0067093881722843E+02     4.1255753086321057E+01
   21     4.4349305677665313E+02     4.3165302120703338E+01
   22     4.8856077409416707E+02     4.5075606720007208E+01
   23     5.3551406914956715E+02     4.7003433682022134E+01
   24     5.8395880173817216E+02     4.8962441308103180E+01
   25     6.3358804451820527E+02     5.0958810584919469E+01
   26     6.8429022636950003E+02     5.2989598801161364E+01
   27     7.3617771262733049E+02     5.5044785646053441E+01
   28     7.8952449927813427E+02     5.7111474453079715E+01
   29     8.4466121852416290E+02     5.9177779034157169E+01
   30     9.0188668737212151E+02     6.1234929130053253E+01
   31     9.6142414415714904E+02     6.3277609991196599E+01
   32     1.0234165768473686E+03     6.5303317102204517E+01
   33     1.0879416243088976E+03     6.7311487669299083E+01
   34     1.1550291219575518E+03     6.9302833256726046E+01
   35     1.2246723462216278E+03     7.1278992852430619E+01
   36     1.2968307803092262E+03     7.3242449393282399E+01
   37     1.3714264694370991E+03     7.5196574043835511E+01
   38     1.4483385403195202E+03     7.7145637258968122E+01
   39     1.5274017793668920E+03     7.9094638998962310E+01
   40     1.6084149280807353E+03     8.1048870263389006E+01
   41     1.6911617612724197E+03     8.3013227383836551E+01
   42     1.7754430049540449E+03     8.4991430181268740E+01
   43     1.8611114364446332E+03     8.6985381685822901E+01
   44     1.9480992513482727E+03     8.8994889464047787E+01
   45     2.0364285174242846E+03     9.1017840686553512E+01
   46     2.1262018593366815E+03     9.3050751269807463E+01
   47     2.2175779471600631E+03     9.5089488077253691E+01
   48     2.3107408702738571E+03     9.7129946279739599E+01
   49     2.4058723642777236E+03     9.9168535780523513E+01
   50     2.5031323758307349E+03     1.0120243300188795E+02
   51     2.6026491876646528E+03     1.0322963449636140E+02
   52     2.7045172666798767E+03     1.0524888548933384E+02
   53     2.8087997480307718E+03     1.0725955612941846E+02
   54     2.9155326223520419E+03     1.0926151843339738E+02
   55     3.0247285414208345E+03     1.1125505277835147E+02
   56     3.1363791485775068E+03     1.1324079236454470E+02
   57     3.2504557031395016E+03     1.1521969957659098E+02
   58     3.3669084342256078E+03     1.1719305902308609E+02
   59     3.4856655394368431E+03     1.1916246724349460E+02
   60     3.6066330368765671E+03     1.2112979837742108E+02


  Monic polynomial zeroth and first moments
    n            t(n)                       s(n)
    0     2.4060006176800746E+02     5.2380284650759446E-01
    1     6.1587392389460160E-01     2.3622150531537951E+00
    2     2.5434842576973220E+00     1.2750072508441969E+01
    3     2.8593877109146373E+01     1.9102097903050026E+02
    4     5.1158601650293997E+02     4.6379036358720841E+03
    5     1.2793632215197778E+04     1.4615370742005244E+05
    6     4.4542483176336397E+05     6.0387886869818252E+06
    7     2.1227520194224115E+07     3.2958207235473484E+08
    8     1.3469561337495062E+09     2.3414304883194897E+10
    9     1.1058381223048724E+11     2.1208916719900088E+12
   10     1.1410806427856156E+13     2.3951405750319844E+14
   11     1.4362840686650058E+15     3.2885056156022016E+16
   12     2.1446562917265750E+17     5.3455588393185290E+18
   13     3.7186860937635824E+19     1.0055175336393602E+21
   14     7.3874697272671737E+21     2.1554617835318681E+23
   15     1.6684217946601300E+24     5.2209230694194663E+25
   16     4.2619928855820167E+26     1.4220527229226154E+28
   17     1.2261905382600029E+29     4.3399767787675477E+30
   18     3.9565774504470556E+31     1.4789848904234316E+33
   19     1.4257500968487411E+34     5.6076830495065669E+35
   20     5.7125662982313951E+36     2.3567622468907355E+38
   21     2.5334834896419314E+39     1.0935858024820775E+41
   22     1.2377606548542537E+42     5.5792812491708918E+43
   23     6.6283824491423434E+44     3.1155673486734157E+46
   24     3.8707022724634938E+47     1.8951903283663543E+49
   25     2.4524306837223183E+50     1.2497295068445017E+52
   26     1.6781743477198529E+53     8.8925785404075674E+54
   27     1.2354345526942636E+56     6.8004230132783658E+57
   28     9.7540584660684434E+58     5.5706866089871386E+60
   29     8.2388749095052989E+61     4.8755831888476622E+63
   30     7.4305315998070215E+64     4.5500807591280418E+66
   31     7.1438924839771172E+67     4.5204844242014471E+69
   32     7.3111779913175061E+70     4.7744417475766574E+72
   33     7.9541348594854304E+73     5.3540465051419554E+75
   34     9.1872574026834107E+76     6.3670296786479040E+78
   35     1.1251380078686312E+80     8.0198704020866182E+81
   36     1.4591136006998452E+83     1.0686905405830847E+85
   37     2.0010670139154417E+86     1.5047338387856935E+88
   38     2.8982224780158319E+89     2.2358521998479707E+91
   39     4.4267501699225047E+92     3.5013220662861555E+94
   40     7.1200510561872887E+95     5.7707209432162940E+97
   41     1.2041158084531248E+99     9.9957539403591419+100
   42     2.1378389892726849+102     1.8169799319556353+104
   43     3.9787565922126293+105     3.4609366080859956+107
   44     7.7510127385864278+108     6.8980052190492550+110
   45     1.5784383379776302+112     1.4366604917959626+114
   46     3.3560785290563385+115     3.1228562844916265+117
   47     7.4423657349727187+118     7.0769074782224975+120
   48     1.7197378675327195+122     1.6703804668868697+124
   49     4.1374698092988747+125     4.1030682282429128+127
   50     1.0356634633678229+129     1.0481166226398534+131
   51     2.6954686716282253+132     2.7825224576857450+134
   52     7.2899415642132063+135     7.6725822491581096+137
   53     2.0475986028721102+139     2.1962451727527992+141
   54     5.9698405241561010+142     6.5227384047452458+144
   55     1.8057147021145674+146     2.0089488448640140+148
   56     5.6634059399919729+149     6.4132857612676015+151
   57     1.8408650136841038+153     2.1210391383773949+155
   58     6.1980239408438479+156     7.2636538552581372+158
   59     2.1604238463203940+160     2.5744143581921856+162
   60     7.7918560177950766+163     9.4382594842141271+165


  Nodes and weights from glqf()
      n            x(n)                      w(n)                      wxm1(n)
      1    1.0733325827261139E-03    1.2709183561396557E+01   -1.2695542380580262E+01
      2    6.4901214786653991E-02    1.2814151667003657E+00   -1.1982497657354692E+00
      3    2.1135548347254809E-01    6.5208066379463969E-01   -5.1425983983522350E-01
      4    4.4018455817383884E-01    3.7529965524978665E-01   -2.1009854232086528E-01
      5    7.5152990299354905E-01    2.1741145868111120E-01   -5.4020246228809701E-02
      6    1.1456034799723671E+00    1.2193759755221824E-01    1.7754538543072969E-02
      7    1.6226775820258907E+00    6.5025980270531678E-02    4.0490220163717942E-02
      8    2.1830843590915854E+00    3.2640733071533194E-02    3.8616740766214366E-02
      9    2.8272167636572672E+00    1.5325688659122814E-02    2.8003355232541272E-02
     10    3.5555299909817979E+00    6.7018227282347655E-03    1.7126708976247400E-02
     11    4.3685432532285731E+00    2.7208021875845885E-03    9.1651398523576073E-03
     12    5.2668418610650782E+00    1.0229317566631715E-03    4.3646880403432568E-03
     13    6.2510796201534831E+00    3.5541886949243896E-04    1.8663327822097367E-03
     14    7.3219815623487383E+00    1.1391797390235232E-04    7.2018733063079613E-04
     15    8.4803470384384863E+00    3.3626921852280593E-05    2.5154104528950954E-04
     16    9.7270532050263245E+00    9.1275004737953722E-06    7.9656182263715199E-05
     17    1.1063058943974033E+01    2.2747521485648709E-06    2.2890964953939872E-05
     18    1.2489409259214192E+01    5.1974080675588181E-07    5.9715148375324820E-06
     19    1.4007240203032442E+01    1.0870682275432598E-07    1.4139757552739908E-06
     20    1.5617784392362339E+01    2.0781411668074385E-08    3.0377819513283436E-07
     21    1.7322377185511279E+01    3.6253411354338351E-09    5.9174185438700784E-08
     22    1.9122463601361467E+01    5.7617576666898280E-10    1.0441724359445179E-08
     23    2.1019606076855801E+01    8.3278519180498397E-11    1.6672031486574581E-09
     24    2.3015493174962739E+01    1.0926455457022665E-11    2.4055130554061685E-10
     25    2.5111949374915188E+01    1.2987961164989870E-12    3.1316506209360021E-11
     26    2.7310946100090138E+01    1.3957560832363036E-13    3.6723663074903308E-12
     27    2.9614614167392059E+01    1.3530513206002281E-14    3.8717041487655820E-13
     28    3.2025257876641533E+01    1.1803622431724587E-15    3.6621042982276594E-14
     29    3.4545371000815379E+01    9.2426358624570865E-17    3.1004764903156419E-15
     30    3.7177654990058947E+01    6.4781895579027460E-18    2.3436570678600804E-16
     31    3.9925039766833635E+01    4.0522067451416446E-19    1.5773230869807001E-17
     32    4.2790707569837245E+01    2.2547941140242051E-20    9.4229441449375811E-19
     33    4.5778120405034507E+01    1.1121898413067918E-21    4.9801770627291743E-20
     34    4.8891051789398475E+01    4.8445701784398795E-23    2.3201156131303967E-21
     35    5.2133623635070812E+01    1.8558184300614010E-24    9.4894721137787661E-23
     36    5.5510349329901231E+01    6.2237554912649329E-26    3.3925908597274251E-24
     37    5.9026184340275961E+01    1.8182375552425717E-27    1.0550538755491816E-25
     38    6.2686586015505327E+01    4.6021369432285826E-29    2.8389011640360470E-27
     39    6.6497584740436309E+01    1.0031452384670418E-30    6.5703590263460258E-29
     40    7.0465869208236327E+01    1.8705361035865208E-32    1.2993841632102525E-30
     41    7.4598889432116735E+01    2.9617118471131857E-34    2.1797870276547357E-32
     42    7.8904982277042535E+01    3.9490283520237829E-36    3.0764898377595128E-34
     43    8.3393525911180959E+01    4.3929714967148695E-38    3.6195241084165597E-36
     44    8.8075131867608349E+01    4.0343025748791126E-40    3.5128742870143064E-38
     45    9.2961886706407981E+01    3.0221054424435843E-42    2.7791851831281587E-40
     46    9.8067660113998770E+01    1.8214069594871846E-44    1.7679971167277396E-42
     47    1.0340850355275376E+02    8.6926351488132497E-47    8.9019975752003387E-45
     48    1.0900317476836666E+02    3.2245979154350887E-49    3.4826681221844669E-47
     49    1.1487384116834596E+02    9.0960666306016046E-52    1.0358040467498190E-49
     50    1.2104704398825210E+02    1.9006006035679202E-54    2.2816148426061661E-52
     51    1.2755505409081576E+02    2.8493546005500632E-57    3.6060022559652796E-55
     52    1.3443783665445534E+02    2.9464496594172314E-60    3.9316786836389206E-58
     53    1.4174600244528179E+02    1.9993751530684341E-63    2.8140406018280547E-61
     54    1.4954543969734212E+02    8.3441999181179133E-67    1.2394928457593516E-64
     55    1.5792499205036256E+02    1.9628485176565429E-70    3.0801998802931894E-68
     56    1.6701011193496569E+02    2.3016154942512371E-74    3.8209144583189926E-72
     57    1.7698953256367525E+02    1.1188843125085008E-78    1.9691192715120021E-76
     58    1.8817479821482078E+02    1.6657370280995203E-83    3.1178399211348297E-81
     59    2.0116371482462694E+02    4.2641854141846211E-89    8.5353519320418427E-87
     60    2.1750053138186348E+02    4.3110332938890403E-96    9.3334099893188246E-94

      n            y(n)                      z(n)
      1    1.6639299774546626E-04    2.3669631665454142E+02
      2    4.6341142283845352E-02    2.9813657065019825E+00
      3    1.6707254284752759E-01    6.8933297156611373E-01
      4    3.6533287494238187E-01    1.5778266726234938E-01
      5    6.4269695876093091E-01    2.1409008923617971E-02
      6    1.4384439370400681E+00    6.0520811404730672E-03
      7    1.9581858711929931E+00    1.2058120681655068E-02
      8    2.5599601409762354E+00    1.2766520815926144E-02
      9    3.2443413809215875E+00    1.0023587935324624E-02
     10    4.0119230175798766E+00    6.4622376770088717E-03
     11    4.8633325381317558E+00    3.5746844894559990E-03
     12    5.7992422180702379E+00    1.7352638174815411E-03
     13    6.8203772628220261E+00    7.4870684957795109E-04
     14    7.9275224744683586E+00    2.8934977620689731E-04
     15    9.1215281121320970E+00    1.0064414458771125E-04
     16    1.0403315370694191E+01    3.1602524451169463E-05
     17    1.1773881763665941E+01    8.9748763397868030E-06
     18    1.3234306615599047E+01    2.3076079420184051E-06
     19    1.4785756822949173E+01    5.3742692212869371E-07
     20    1.6429493016578455E+01    1.1337095490535328E-07
     21    1.8166876246710096E+01    2.1654780076608089E-08
     22    1.9999375307987037E+01    3.7427355609517076E-09
     23    2.1928574826039018E+01    5.8480057291759862E-10
     24    2.3956184236451797E+01    8.2509973513300310E-11
     25    2.6084047801821633E+01    1.0497481394235119E-11
     26    2.8314155832746781E+01    1.2024034614276461E-12
     27    3.0648657304680679E+01    1.2376996296964312E-13
     28    3.3089874095471011E+01    1.1426134909226842E-14
     29    3.5640317109511457E+01    9.4389541619564734E-16
     30    3.8302704605626509E+01    6.9599724565300182E-17
     31    4.1079983109648694E+01    4.5683514572507949E-18
     32    4.3975351372535023E+01    2.6611610702836292E-19
     33    4.6992287935366846E+01    1.3712149707817537E-20
     34    5.0134582989797742E+01    6.2270880930552012E-22
     35    5.3406375384739526E+01    2.4824259953854650E-23
     36    5.6812195838613675E+01    8.6491399520458143E-25
     37    6.0357017686920493E+01    2.6210420988885353E-26
     38    6.4046316848952685E+01    6.8716217439102619E-28
     39    6.7886143165887717E+01    1.5493834925597723E-29
     40    7.1883205889194528E+01    2.9848167679850164E-31
     41    7.6044976947085885E+01    4.8769773375226845E-33
     42    8.0379816781787866E+01    6.7033282559501542E-35
     43    8.4897129172997097E+01    7.6792816018757996E-37
     44    8.9607553759222384E+01    7.2559468471724652E-39
     45    9.4523208276388218E+01    5.5876639943726959E-41
     46    9.9657997391697734E+01    3.4592607231670956E-43
     47    1.0502801230497215E+02    1.6946191401309587E-45
     48    1.1065205651188251E+02    6.4484747880993738E-48
     49    1.1655235087364005E+02    1.8648335472863394E-50
     50    1.2275550011344878E+02    3.9925926467721657E-53
     51    1.2929385191193313E+02    6.1304306647579268E-56
     52    1.3620746640408393E+02    6.4902139678641017E-59
     53    1.4354707472647311E+02    4.5075610685852205E-62
     54    1.5137872240408242E+02    1.9250167528659038E-65
     55    1.5979146651909758E+02    4.6334904168145183E-69
     56    1.6891106359379958E+02    5.5599032230352023E-73
     57    1.7892670960196153E+02    2.7668054009453410E-77
     58    1.9015072358876768E+02    4.2196360768652885E-82
     59    2.0318242385088908E+02    1.1082138004301713E-87
     60    2.1957004920206720E+02    1.1534436628676412E-94


  Nodes and weights from glqfd()
      n            x(n)                      w(n)
      1    1.0733325827261139E-03    1.2709183561396557E+01
      2    6.4901214786653991E-02    1.2814151667003657E+00
      3    2.1135548347254809E-01    6.5208066379463969E-01
      4    4.4018455817383884E-01    3.7529965524978665E-01
      5    7.5152990299354905E-01    2.1741145868111120E-01
      6    1.1456034799723671E+00    1.2193759755221824E-01
      7    1.6226775820258907E+00    6.5025980270531678E-02
      8    2.1830843590915854E+00    3.2640733071533194E-02
      9    2.8272167636572672E+00    1.5325688659122814E-02
     10    3.5555299909817979E+00    6.7018227282347655E-03
     11    4.3685432532285731E+00    2.7208021875845885E-03
     12    5.2668418610650782E+00    1.0229317566631715E-03
     13    6.2510796201534831E+00    3.5541886949243896E-04
     14    7.3219815623487383E+00    1.1391797390235232E-04
     15    8.4803470384384863E+00    3.3626921852280593E-05
     16    9.7270532050263245E+00    9.1275004737953722E-06
     17    1.1063058943974033E+01    2.2747521485648709E-06
     18    1.2489409259214192E+01    5.1974080675588181E-07
     19    1.4007240203032442E+01    1.0870682275432598E-07
     20    1.5617784392362339E+01    2.0781411668074385E-08
     21    1.7322377185511279E+01    3.6253411354338351E-09
     22    1.9122463601361467E+01    5.7617576666898280E-10
     23    2.1019606076855801E+01    8.3278519180498397E-11
     24    2.3015493174962739E+01    1.0926455457022665E-11
     25    2.5111949374915188E+01    1.2987961164989870E-12
     26    2.7310946100090138E+01    1.3957560832363036E-13
     27    2.9614614167392059E+01    1.3530513206002281E-14
     28    3.2025257876641533E+01    1.1803622431724587E-15
     29    3.4545371000815379E+01    9.2426358624570865E-17
     30    3.7177654990058947E+01    6.4781895579027460E-18
     31    3.9925039766833635E+01    4.0522067451416446E-19
     32    4.2790707569837245E+01    2.2547941140242051E-20
     33    4.5778120405034507E+01    1.1121898413067918E-21
     34    4.8891051789398475E+01    4.8445701784398795E-23
     35    5.2133623635070812E+01    1.8558184300614010E-24
     36    5.5510349329901231E+01    6.2237554912649329E-26
     37    5.9026184340275961E+01    1.8182375552425717E-27
     38    6.2686586015505327E+01    4.6021369432285826E-29
     39    6.6497584740436309E+01    1.0031452384670418E-30
     40    7.0465869208236327E+01    1.8705361035865208E-32
     41    7.4598889432116735E+01    2.9617118471131857E-34
     42    7.8904982277042535E+01    3.9490283520237829E-36
     43    8.3393525911180959E+01    4.3929714967148695E-38
     44    8.8075131867608349E+01    4.0343025748791126E-40
     45    9.2961886706407981E+01    3.0221054424435843E-42
     46    9.8067660113998770E+01    1.8214069594871846E-44
     47    1.0340850355275376E+02    8.6926351488132497E-47
     48    1.0900317476836666E+02    3.2245979154350887E-49
     49    1.1487384116834596E+02    9.0960666306016046E-52
     50    1.2104704398825210E+02    1.9006006035679202E-54
     51    1.2755505409081576E+02    2.8493546005500632E-57
     52    1.3443783665445534E+02    2.9464496594172314E-60
     53    1.4174600244528179E+02    1.9993751530684341E-63
     54    1.4954543969734212E+02    8.3441999181179133E-67
     55    1.5792499205036256E+02    1.9628485176565429E-70
     56    1.6701011193496569E+02    2.3016154942512371E-74
     57    1.7698953256367525E+02    1.1188843125085008E-78
