  alpha = -0.937500  nquad =   60  pmax = 120


  Monic polynomial recursion coefficients
    n            a(n)                       b(n)
    0     2.4060006176800746E+02     2.1770686285719166E-03
    1     2.5597413374250939E-03     3.8355497148115263E+00
    2     4.1298781439114842E+00     5.0128372015107185E+00
    3     1.1242010648429547E+01     6.6804854165578966E+00
    4     1.7891453283867467E+01     9.0657357438647406E+00
    5     2.5007783251488277E+01     1.1423941611080066E+01
    6     3.4816135423545838E+01     1.3557368732846001E+01
    7     4.7656795671197550E+01     1.5526169300001976E+01
    8     6.3453296542664766E+01     1.7383123545394742E+01
    9     8.2099044994625203E+01     1.9179042838290716E+01
   10     1.0318695112511433E+02     2.0990107843604743E+01
   11     1.2587051386295830E+02     2.2895927674382690E+01
   12     1.4931978558531151E+02     2.4925014138349578E+01
   13     1.7339310303982688E+02     2.7039591626882938E+01
   14     1.9865806204122384E+02     2.9177267225556903E+01
   15     2.2584482322844394E+02     3.1292584921446657E+01
   16     2.5545056407335147E+02     3.3365910293593032E+01
   17     2.8770356290553951E+02     3.5393983588603483E+01
   18     3.2267231943100313E+02     3.7380410441764980E+01
   19     3.6034934604594849E+02     3.9331458310267230E+01
   20     4.0067093881722849E+02     4.1255753086321015E+01
   21     4.4349305677665348E+02     4.3165302120703338E+01
   22     4.8856077409416650E+02     4.5075606720007215E+01
   23     5.3551406914956522E+02     4.7003433682022241E+01
   24     5.8395880173817034E+02     4.8962441308103202E+01
   25     6.3358804451820345E+02     5.0958810584919661E+01
   26     6.8429022636949719E+02     5.2989598801161378E+01
   27     7.3617771262732765E+02     5.5044785646053604E+01
   28     7.8952449927813075E+02     5.7111474453079715E+01
   29     8.4466121852416097E+02     5.9177779034157275E+01
   30     9.0188668737212402E+02     6.1234929130053182E+01
   31     9.6142414415715234E+02     6.3277609991196506E+01
   32     1.0234165768473723E+03     6.5303317102204275E+01
   33     1.0879416243089029E+03     6.7311487669298899E+01
   34     1.1550291219575624E+03     6.9302833256725719E+01
   35     1.2246723462216335E+03     7.1278992852430321E+01
   36     1.2968307803092382E+03     7.3242449393282058E+01
   37     1.3714264694371177E+03     7.5196574043835128E+01
   38     1.4483385403195309E+03     7.7145637258967767E+01
   39     1.5274017793669020E+03     7.9094638998961983E+01
   40     1.6084149280807371E+03     8.1048870263388807E+01
   41     1.6911617612724181E+03     8.3013227383836821E+01
   42     1.7754430049540460E+03     8.4991430181269138E+01
   43     1.8611114364446084E+03     8.6985381685823000E+01
   44     1.9480992513482431E+03     8.8994889464048086E+01
   45     2.0364285174242575E+03     9.1017840686554308E+01
   46     2.1262018593366852E+03     9.3050751269808089E+01
   47     2.2175779471600363E+03     9.5089488077253648E+01
   48     2.3107408702738453E+03     9.7129946279739542E+01
   49     2.4058723642777331E+03     9.9168535780523385E+01
   50     2.5031323758307535E+03     1.0120243300188758E+02
   51     2.6026491876646896E+03     1.0322963449636065E+02
   52     2.7045172666799072E+03     1.0524888548933282E+02
   53     2.8087997480308200E+03     1.0725955612941767E+02
   54     2.9155326223520947E+03     1.0926151843339657E+02
   55     3.0247285414208700E+03     1.1125505277835029E+02
   56     3.1363791485775441E+03     1.1324079236454406E+02
   57     3.2504557031395466E+03     1.1521969957659060E+02
   58     3.3669084342256228E+03     1.1719305902308591E+02
   59     3.4856655394367986E+03     1.1916246724349465E+02
   60     3.6066330368765894E+03     1.2112979837742105E+02


  Monic polynomial zeroth and first moments
    n            t(n)                       s(n)
    0     2.4060006176800746E+02     5.2380284650759446E-01
    1     6.1587392389459961E-01     2.3622150531537871E+00
    2     2.5434842576973118E+00     1.2750072508441960E+01
    3     2.8593877109146103E+01     1.9102097903049921E+02
    4     5.1158601650293485E+02     4.6379036358720332E+03
    5     1.2793632215197700E+04     1.4615370742005145E+05
    6     4.4542483176336181E+05     6.0387886869817916E+06
    7     2.1227520194224078E+07     3.2958207235473388E+08
    8     1.3469561337495053E+09     2.3414304883194893E+10
    9     1.1058381223048703E+11     2.1208916719900076E+12
   10     1.1410806427856086E+13     2.3951405750319744E+14
   11     1.4362840686649932E+15     3.2885056156021788E+16
   12     2.1446562917265562E+17     5.3455588393184788E+18
   13     3.7186860937635578E+19     1.0055175336393512E+21
   14     7.3874697272671716E+21     2.1554617835318624E+23
   15     1.6684217946601354E+24     5.2209230694194723E+25
   16     4.2619928855820497E+26     1.4220527229226239E+28
   17     1.2261905382600171E+29     4.3399767787675916E+30
   18     3.9565774504470988E+31     1.4789848904234461E+33
   19     1.4257500968487582E+34     5.6076830495066400E+35
   20     5.7125662982314635E+36     2.3567622468907612E+38
   21     2.5334834896419638E+39     1.0935858024820914E+41
   22     1.2377606548542681E+42     5.5792812491709581E+43
   23     6.6283824491423965E+44     3.1155673486734481E+46
   24     3.8707022724635125E+47     1.8951903283663642E+49
   25     2.4524306837223232E+50     1.2497295068445088E+52
   26     1.6781743477198493E+53     8.8925785404075497E+54
   27     1.2354345526942562E+56     6.8004230132783449E+57
   28     9.7540584660683409E+58     5.5706866089870794E+60
   29     8.2388749095051927E+61     4.8755831888476081E+63
   30     7.4305315998069467E+64     4.5500807591279909E+66
   31     7.1438924839770694E+67     4.5204844242014103E+69
   32     7.3111779913174840E+70     4.7744417475766253E+72
   33     7.9541348594854454E+73     5.3540465051419513E+75
   34     9.1872574026835135E+76     6.3670296786479452E+78
   35     1.1251380078686488E+80     8.0198704020867109E+81
   36     1.4591136006998816E+83     1.0686905405831065E+85
   37     2.0010670139155190E+86     1.5047338387857440E+88
   38     2.8982224780159653E+89     2.2358521998480633E+91
   39     4.4267501699227375E+92     3.5013220662863252E+94
   40     7.1200510561876705E+95     5.7707209432165900E+97
   41     1.2041158084531881E+99     9.9957539403597014+100
   42     2.1378389892727988+102     1.8169799319557407+104
   43     3.9787565922127882+105     3.4609366080861377+107
   44     7.7510127385866197+108     6.8980052190494485+110
   45     1.5784383379776484+112     1.4366604917959916+114
   46     3.3560785290563831+115     3.1228562844916892+117
   47     7.4423657349727285+118     7.0769074782225033+120
   48     1.7197378675327129+122     1.6703804668868625+124
   49     4.1374698092988747+125     4.1030682282429075+127
   50     1.0356634633678306+129     1.0481166226398573+131
   51     2.6954686716282833+132     2.7825224576857845+134
   52     7.2899415642134451+135     7.6725822491582864+137
   53     2.0475986028722126+139     2.1962451727528929+141
   54     5.9698405241565072+142     6.5227384047456409+144
   55     1.8057147021147113+146     2.0089488448641528+148
   56     5.6634059399924917+149     6.4132857612681527+151
   57     1.8408650136842980+153     2.1210391383776117+155
   58     6.1980239408445292+156     7.2636538552589244+158
   59     2.1604238463206038+160     2.5744143581924365+162
   60     7.7918560177958809+163     9.4382594842150993+165


  Nodes and weights from glqf()
      n            x(n)                      w(n)                      wxm1(n)
      1    1.0733325827260128E-03    1.2709183561396504E+01   -1.2695542380580211E+01
      2    6.4901214786660319E-02    1.2814151667003486E+00   -1.1982497657354452E+00
      3    2.1135548347255687E-01    6.5208066379464780E-01   -5.1425983983522428E-01
      4    4.4018455817383734E-01    3.7529965524978559E-01   -2.1009854232086528E-01
      5    7.5152990299354883E-01    2.1741145868111128E-01   -5.4020246228809771E-02
      6    1.1456034799723704E+00    1.2193759755221771E-01    1.7754538543073298E-02
      7    1.6226775820259018E+00    6.5025980270530789E-02    4.0490220163718109E-02
      8    2.1830843590915987E+00    3.2640733071532806E-02    3.8616740766214339E-02
      9    2.8272167636572916E+00    1.5325688659122479E-02    2.8003355232541032E-02
     10    3.5555299909818268E+00    6.7018227282345843E-03    1.7126708976247129E-02
     11    4.3685432532286042E+00    2.7208021875845009E-03    9.1651398523573974E-03
     12    5.2668418610650987E+00    1.0229317566631513E-03    4.3646880403431908E-03
     13    6.2510796201534937E+00    3.5541886949243474E-04    1.8663327822097183E-03
     14    7.3219815623487330E+00    1.1391797390235296E-04    7.2018733063079949E-04
     15    8.4803470384384934E+00    3.3626921852280383E-05    2.5154104528950824E-04
     16    9.7270532050263281E+00    9.1275004737953451E-06    7.9656182263714996E-05
     17    1.1063058943974024E+01    2.2747521485648912E-06    2.2890964953940055E-05
     18    1.2489409259214179E+01    5.1974080675588816E-07    5.9715148375325489E-06
     19    1.4007240203032419E+01    1.0870682275432854E-07    1.4139757552740215E-06
     20    1.5617784392362330E+01    2.0781411668074557E-08    3.0377819513283668E-07
     21    1.7322377185511282E+01    3.6253411354338289E-09    5.9174185438700698E-08
     22    1.9122463601361471E+01    5.7617576666898043E-10    1.0441724359445138E-08
     23    2.1019606076855798E+01    8.3278519180498720E-11    1.6672031486574643E-09
     24    2.3015493174962739E+01    1.0926455457022665E-11    2.4055130554061685E-10
     25    2.5111949374915202E+01    1.2987961164989680E-12    3.1316506209359582E-11
     26    2.7310946100090163E+01    1.3957560832362680E-13    3.6723663074902403E-12
     27    2.9614614167392084E+01    1.3530513206001940E-14    3.8717041487654881E-13
     28    3.2025257876641568E+01    1.1803622431724147E-15    3.6621042982275268E-14
     29    3.4545371000815393E+01    9.2426358624569546E-17    3.1004764903155989E-15
     30    3.7177654990058947E+01    6.4781895579027460E-18    2.3436570678600804E-16
     31    3.9925039766833656E+01    4.0522067451415603E-19    1.5773230869806680E-17
     32    4.2790707569837245E+01    2.2547941140242051E-20    9.4229441449375811E-19
     33    4.5778120405034535E+01    1.1121898413067591E-21    4.9801770627290311E-20
     34    4.8891051789398460E+01    4.8445701784399524E-23    2.3201156131304310E-21
     35    5.2133623635070805E+01    1.8558184300614160E-24    9.4894721137788413E-23
     36    5.5510349329901217E+01    6.2237554912650259E-26    3.3925908597274751E-24
     37    5.9026184340275940E+01    1.8182375552426087E-27    1.0550538755492027E-25
     38    6.2686586015505341E+01    4.6021369432285092E-29    2.8389011640360025E-27
     39    6.6497584740436295E+01    1.0031452384670556E-30    6.5703590263461144E-29
     40    7.0465869208236327E+01    1.8705361035865208E-32    1.2993841632102525E-30
     41    7.4598889432116735E+01    2.9617118471131857E-34    2.1797870276547357E-32
     42    7.8904982277042492E+01    3.9490283520239653E-36    3.0764898377596535E-34
     43    8.3393525911181015E+01    4.3929714967146168E-38    3.6195241084163545E-36
     44    8.8075131867608306E+01    4.0343025748792945E-40    3.5128742870144630E-38
     45    9.2961886706407938E+01    3.0221054424437175E-42    2.7791851831282798E-40
     46    9.8067660113998770E+01    1.8214069594871846E-44    1.7679971167277396E-42
     47    1.0340850355275379E+02    8.6926351488129988E-47    8.9019975752000836E-45
     48    1.0900317476836659E+02    3.2245979154353181E-49    3.4826681221847125E-47
     49    1.1487384116834602E+02    9.0960666306010913E-52    1.0358040467497611E-49
     50    1.2104704398825211E+02    1.9006006035678953E-54    2.2816148426061365E-52
     51    1.2755505409081576E+02    2.8493546005500632E-57    3.6060022559652796E-55
     52    1.3443783665445537E+02    2.9464496594171457E-60    3.9316786836388074E-58
     53    1.4174600244528185E+02    1.9993751530683196E-63    2.8140406018278947E-61
     54    1.4954543969734212E+02    8.3441999181179133E-67    1.2394928457593516E-64
     55    1.5792499205036242E+02    1.9628485176568251E-70    3.0801998802936292E-68
     56    1.6701011193496575E+02    2.3016154942511123E-74    3.8209144583187865E-72
     57    1.7698953256367520E+02    1.1188843125085591E-78    1.9691192715121039E-76
     58    1.8817479821482075E+02    1.6657370280995689E-83    3.1178399211349201E-81
     59    2.0116371482462702E+02    4.2641854141842521E-89    8.5353519320411069E-87
     60    2.1750053138186351E+02    4.3110332938889139E-96    9.3334099893185521E-94

      n            y(n)                      z(n)
      1    1.6639299774556801E-04    2.3669631665454210E+02
      2    4.6341142283840238E-02    2.9813657065022978E+00
      3    1.6707254284751019E-01    6.8933297156618401E-01
      4    3.6533287494235916E-01    1.5778266726242540E-01
      5    6.4269695876096999E-01    2.1409008923610657E-02
      6    1.4384439370398689E+00    6.0520811404699464E-03
      7    1.9581858711927647E+00    1.2058120681654955E-02
      8    2.5599601409760671E+00    1.2766520815927910E-02
      9    3.2443413809214383E+00    1.0023587935326124E-02
     10    4.0119230175797567E+00    6.4622376770096090E-03
     11    4.8633325381316483E+00    3.5746844894563551E-03
     12    5.7992422180701242E+00    1.7352638174817237E-03
     13    6.8203772628219062E+00    7.4870684957803468E-04
     14    7.9275224744682466E+00    2.8934977620692837E-04
     15    9.1215281121319940E+00    1.0064414458772040E-04
     16    1.0403315370694076E+01    3.1602524451173150E-05
     17    1.1773881763665836E+01    8.9748763397877128E-06
     18    1.3234306615598928E+01    2.3076079420186719E-06
     19    1.4785756822949049E+01    5.3742692212875829E-07
     20    1.6429493016578345E+01    1.1337095490536564E-07
     21    1.8166876246709986E+01    2.1654780076610368E-08
     22    1.9999375307986941E+01    3.7427355609520567E-09
     23    2.1928574826038901E+01    5.8480057291766728E-10
     24    2.3956184236451673E+01    8.2509973513309952E-11
     25    2.6084047801821516E+01    1.0497481394236376E-11
     26    2.8314155832746682E+01    1.2024034614277603E-12
     27    3.0648657304680590E+01    1.2376996296965400E-13
     28    3.3089874095470911E+01    1.1426134909227986E-14
     29    3.5640317109511351E+01    9.4389541619574535E-16
     30    3.8302704605626424E+01    6.9599724565306160E-17
     31    4.1079983109648602E+01    4.5683514572511939E-18
     32    4.3975351372534895E+01    2.6611610702839831E-19
     33    4.6992287935366768E+01    1.3712149707818497E-20
     34    5.0134582989797629E+01    6.2270880930559601E-22
     35    5.3406375384739484E+01    2.4824259953855479E-23
     36    5.6812195838613597E+01    8.6491399520465287E-25
     37    6.0357017686920415E+01    2.6210420988887425E-26
     38    6.4046316848952571E+01    6.8716217439110385E-28
     39    6.7886143165887631E+01    1.5493834925599043E-29
     40    7.1883205889194485E+01    2.9848167679851495E-31
     41    7.6044976947085857E+01    4.8769773375228563E-33
     42    8.0379816781787767E+01    6.7033282559508245E-35
     43    8.4897129172996998E+01    7.6792816018765363E-37
     44    8.9607553759222355E+01    7.2559468471726583E-39
     45    9.4523208276388019E+01    5.5876639943738235E-41
     46    9.9657997391697691E+01    3.4592607231672712E-43
     47    1.0502801230497199E+02    1.6946191401312032E-45
     48    1.1065205651188242E+02    6.4484747880999365E-48
     49    1.1655235087363997E+02    1.8648335472864994E-50
     50    1.2275550011344866E+02    3.9925926467726242E-53
     51    1.2929385191193305E+02    6.1304306647584194E-56
     52    1.3620746640408376E+02    6.4902139678650984E-59
     53    1.4354707472647314E+02    4.5075610685852265E-62
     54    1.5137872240408228E+02    1.9250167528661142E-65
     55    1.5979146651909744E+02    4.6334904168152894E-69
     56    1.6891106359379947E+02    5.5599032230356535E-73
     57    1.7892670960196139E+02    2.7668054009457490E-77
     58    1.9015072358876748E+02    4.2196360768661405E-82
     59    2.0318242385088891E+02    1.1082138004303661E-87
     60    2.1957004920206705E+02    1.1534436628678019E-94


  Nodes and weights from glqfd()
      n            x(n)                      w(n)
      1    1.0733325827260128E-03    1.2709183561396504E+01
      2    6.4901214786660319E-02    1.2814151667003486E+00
      3    2.1135548347255687E-01    6.5208066379464780E-01
      4    4.4018455817383734E-01    3.7529965524978559E-01
      5    7.5152990299354883E-01    2.1741145868111128E-01
      6    1.1456034799723704E+00    1.2193759755221771E-01
      7    1.6226775820259018E+00    6.5025980270530789E-02
      8    2.1830843590915987E+00    3.2640733071532806E-02
      9    2.8272167636572916E+00    1.5325688659122479E-02
     10    3.5555299909818268E+00    6.7018227282345843E-03
     11    4.3685432532286042E+00    2.7208021875845009E-03
     12    5.2668418610650987E+00    1.0229317566631513E-03
     13    6.2510796201534937E+00    3.5541886949243474E-04
     14    7.3219815623487330E+00    1.1391797390235296E-04
     15    8.4803470384384934E+00    3.3626921852280383E-05
     16    9.7270532050263281E+00    9.1275004737953451E-06
     17    1.1063058943974024E+01    2.2747521485648912E-06
     18    1.2489409259214179E+01    5.1974080675588816E-07
     19    1.4007240203032419E+01    1.0870682275432854E-07
     20    1.5617784392362330E+01    2.0781411668074557E-08
     21    1.7322377185511282E+01    3.6253411354338289E-09
     22    1.9122463601361471E+01    5.7617576666898043E-10
     23    2.1019606076855798E+01    8.3278519180498720E-11
     24    2.3015493174962739E+01    1.0926455457022665E-11
     25    2.5111949374915202E+01    1.2987961164989680E-12
     26    2.7310946100090163E+01    1.3957560832362680E-13
     27    2.9614614167392084E+01    1.3530513206001940E-14
     28    3.2025257876641568E+01    1.1803622431724147E-15
     29    3.4545371000815393E+01    9.2426358624569546E-17
     30    3.7177654990058947E+01    6.4781895579027460E-18
     31    3.9925039766833656E+01    4.0522067451415603E-19
     32    4.2790707569837245E+01    2.2547941140242051E-20
     33    4.5778120405034535E+01    1.1121898413067591E-21
     34    4.8891051789398460E+01    4.8445701784399524E-23
     35    5.2133623635070805E+01    1.8558184300614160E-24
     36    5.5510349329901217E+01    6.2237554912650259E-26
     37    5.9026184340275940E+01    1.8182375552426087E-27
     38    6.2686586015505341E+01    4.6021369432285092E-29
     39    6.6497584740436295E+01    1.0031452384670556E-30
     40    7.0465869208236327E+01    1.8705361035865208E-32
     41    7.4598889432116735E+01    2.9617118471131857E-34
     42    7.8904982277042492E+01    3.9490283520239653E-36
     43    8.3393525911181015E+01    4.3929714967146168E-38
     44    8.8075131867608306E+01    4.0343025748792945E-40
     45    9.2961886706407938E+01    3.0221054424437175E-42
     46    9.8067660113998770E+01    1.8214069594871846E-44
     47    1.0340850355275379E+02    8.6926351488129988E-47
     48    1.0900317476836659E+02    3.2245979154353181E-49
     49    1.1487384116834602E+02    9.0960666306010913E-52
     50    1.2104704398825211E+02    1.9006006035678953E-54
     51    1.2755505409081576E+02    2.8493546005500632E-57
     52    1.3443783665445537E+02    2.9464496594171457E-60
     53    1.4174600244528185E+02    1.9993751530683196E-63
     54    1.4954543969734212E+02    8.3441999181179133E-67
     55    1.5792499205036242E+02    1.9628485176568251E-70
     56    1.6701011193496575E+02    2.3016154942511123E-74
     57    1.7698953256367520E+02    1.1188843125085591E-78
