  alpha = -0.937500  nquad =   60  pmax = 120


  Monic polynomial recursion coefficients
    n            a(n)                       b(n)
    0     2.4060006176800746E+02     2.1770686285719166E-03
    1     2.5597413374250991E-03     3.8355497148115223E+00
    2     4.1298781439114896E+00     5.0128372015107088E+00
    3     1.1242010648429556E+01     6.6804854165578975E+00
    4     1.7891453283867449E+01     9.0657357438647406E+00
    5     2.5007783251488270E+01     1.1423941611080071E+01
    6     3.4816135423545859E+01     1.3557368732845967E+01
    7     4.7656795671197592E+01     1.5526169300001987E+01
    8     6.3453296542664752E+01     1.7383123545394742E+01
    9     8.2099044994625061E+01     1.9179042838290741E+01
   10     1.0318695112511428E+02     2.0990107843604743E+01
   11     1.2587051386295776E+02     2.2895927674382705E+01
   12     1.4931978558531159E+02     2.4925014138349624E+01
   13     1.7339310303982688E+02     2.7039591626882927E+01
   14     1.9865806204122416E+02     2.9177267225556896E+01
   15     2.2584482322844457E+02     3.1292584921446608E+01
   16     2.5545056407335181E+02     3.3365910293593039E+01
   17     2.8770356290553980E+02     3.5393983588603426E+01
   18     3.2267231943100217E+02     3.7380410441764973E+01
   19     3.6034934604594957E+02     3.9331458310267223E+01
   20     4.0067093881722775E+02     4.1255753086321057E+01
   21     4.4349305677665376E+02     4.3165302120703409E+01
   22     4.8856077409416474E+02     4.5075606720007222E+01
   23     5.3551406914956306E+02     4.7003433682022262E+01
   24     5.8395880173817091E+02     4.8962441308103259E+01
   25     6.3358804451820515E+02     5.0958810584919661E+01
   26     6.8429022636949730E+02     5.2989598801161243E+01
   27     7.3617771262732833E+02     5.5044785646053576E+01
   28     7.8952449927813302E+02     5.7111474453079630E+01
   29     8.4466121852416859E+02     5.9177779034157304E+01
   30     9.0188668737212197E+02     6.1234929130053033E+01
   31     9.6142414415715132E+02     6.3277609991196350E+01
   32     1.0234165768473806E+03     6.5303317102204460E+01
   33     1.0879416243088956E+03     6.7311487669298614E+01
   34     1.1550291219575556E+03     6.9302833256725748E+01
   35     1.2246723462216437E+03     7.1278992852430790E+01
   36     1.2968307803092312E+03     7.3242449393281774E+01
   37     1.3714264694370995E+03     7.5196574043835412E+01
   38     1.4483385403195493E+03     7.7145637258967881E+01
   39     1.5274017793668938E+03     7.9094638998961713E+01
   40     1.6084149280807333E+03     8.1048870263388977E+01
   41     1.6911617612724292E+03     8.3013227383836536E+01
   42     1.7754430049540597E+03     8.4991430181269266E+01
   43     1.8611114364446062E+03     8.6985381685822247E+01
   44     1.9480992513482572E+03     8.8994889464047972E+01
   45     2.0364285174242557E+03     9.1017840686553896E+01
   46     2.1262018593366965E+03     9.3050751269808316E+01
   47     2.2175779471600313E+03     9.5089488077253321E+01
   48     2.3107408702738435E+03     9.7129946279739926E+01
   49     2.4058723642777290E+03     9.9168535780524067E+01
   50     2.5031323758307230E+03     1.0120243300188777E+02
   51     2.6026491876646701E+03     1.0322963449636087E+02
   52     2.7045172666798658E+03     1.0524888548933356E+02
   53     2.8087997480308127E+03     1.0725955612941857E+02
   54     2.9155326223520915E+03     1.0926151843339643E+02
   55     3.0247285414208154E+03     1.1125505277835130E+02
   56     3.1363791485775751E+03     1.1324079236454416E+02
   57     3.2504557031395516E+03     1.1521969957659039E+02
   58     3.3669084342255810E+03     1.1719305902308480E+02
   59     3.4856655394367754E+03     1.1916246724349458E+02
   60     3.6066330368767472E+03     1.2112979837742019E+02


  Monic polynomial zeroth and first moments
    n            t(n)                       s(n)
    0     2.4060006176800746E+02     5.2380284650759446E-01
    1     6.1587392389460083E-01     2.3622150531537893E+00
    2     2.5434842576973198E+00     1.2750072508441976E+01
    3     2.8593877109146213E+01     1.9102097903049997E+02
    4     5.1158601650293633E+02     4.6379036358720468E+03
    5     1.2793632215197733E+04     1.4615370742005188E+05
    6     4.4542483176336327E+05     6.0387886869817963E+06
    7     2.1227520194224168E+07     3.2958207235473549E+08
    8     1.3469561337495105E+09     2.3414304883194984E+10
    9     1.1058381223048727E+11     2.1208916719900149E+12
   10     1.1410806427856105E+13     2.3951405750319784E+14
   11     1.4362840686649895E+15     3.2885056156021724E+16
   12     2.1446562917265520E+17     5.3455588393184788E+18
   13     3.7186860937635504E+19     1.0055175336393488E+21
   14     7.3874697272671695E+21     2.1554617835318614E+23
   15     1.6684217946601394E+24     5.2209230694194766E+25
   16     4.2619928855820655E+26     1.4220527229226294E+28
   17     1.2261905382600228E+29     4.3399767787676045E+30
   18     3.9565774504471051E+31     1.4789848904234481E+33
   19     1.4257500968487649E+34     5.6076830495066651E+35
   20     5.7125662982314801E+36     2.3567622468907703E+38
   21     2.5334834896419726E+39     1.0935858024820970E+41
   22     1.2377606548542679E+42     5.5792812491709581E+43
   23     6.6283824491423695E+44     3.1155673486734365E+46
   24     3.8707022724635003E+47     1.8951903283663603E+49
   25     2.4524306837223220E+50     1.2497295068445083E+52
   26     1.6781743477198488E+53     8.8925785404075252E+54
   27     1.2354345526942571E+56     6.8004230132783463E+57
   28     9.7540584660683765E+58     5.5706866089870915E+60
   29     8.2388749095052978E+61     4.8755831888476724E+63
   30     7.4305315998070238E+64     4.5500807591280268E+66
   31     7.1438924839771364E+67     4.5204844242014417E+69
   32     7.3111779913176115E+70     4.7744417475767218E+72
   33     7.9541348594855308E+73     5.3540465051419859E+75
   34     9.1872574026835572E+76     6.3670296786479781E+78
   35     1.1251380078686635E+80     8.0198704020868693E+81
   36     1.4591136006998929E+83     1.0686905405831106E+85
   37     2.0010670139155080E+86     1.5047338387857413E+88
   38     2.8982224780159862E+89     2.2358521998480829E+91
   39     4.4267501699227456E+92     3.5013220662863201E+94
   40     7.1200510561876670E+95     5.7707209432165983E+97
   41     1.2041158084531954E+99     9.9957539403597278+100
   42     2.1378389892728284+102     1.8169799319557684+104
   43     3.9787565922128386+105     3.4609366080861521+107
   44     7.7510127385867741+108     6.8980052190495767+110
   45     1.5784383379776785+112     1.4366604917960126+114
   46     3.3560785290564649+115     3.1228562844917726+117
   47     7.4423657349728934+118     7.0769074782226363+120
   48     1.7197378675327496+122     1.6703804668869047+124
   49     4.1374698092989559+125     4.1030682282430157+127
   50     1.0356634633678383+129     1.0481166226398670+131
   51     2.6954686716282833+132     2.7825224576857906+134
   52     7.2899415642133328+135     7.6725822491582220+137
   53     2.0475986028721758+139     2.1962451727528720+141
   54     5.9698405241563935+142     6.5227384047455078+144
   55     1.8057147021146444+146     2.0089488448640966+148
   56     5.6634059399923381+149     6.4132857612679841+151
   57     1.8408650136842508+153     2.1210391383775533+155
   58     6.1980239408442937+156     7.2636538552585801+158
   59     2.1604238463205073+160     2.5744143581923203+162
   60     7.7918560177958745+163     9.4382594842150240+165


  Nodes and weights from glqf()
      n            x(n)                      w(n)                      wxm1(n)
      1    1.0733325827260254E-03    1.2709183561396522E+01   -1.2695542380580228E+01
      2    6.4901214786658473E-02    1.2814151667003961E+00   -1.1982497657354920E+00
      3    2.1135548347255798E-01    6.5208066379464313E-01   -5.1425983983521983E-01
      4    4.4018455817383834E-01    3.7529965524978831E-01   -2.1009854232086639E-01
      5    7.5152990299354827E-01    2.1741145868111136E-01   -5.4020246228809909E-02
      6    1.1456034799723711E+00    1.2193759755221745E-01    1.7754538543073340E-02
      7    1.6226775820259001E+00    6.5025980270531011E-02    4.0490220163718137E-02
      8    2.1830843590916018E+00    3.2640733071532667E-02    3.8616740766214276E-02
      9    2.8272167636572960E+00    1.5325688659122403E-02    2.8003355232540963E-02
     10    3.5555299909818299E+00    6.7018227282345548E-03    1.7126708976247074E-02
     11    4.3685432532286059E+00    2.7208021875844974E-03    9.1651398523573905E-03
     12    5.2668418610651040E+00    1.0229317566631455E-03    4.3646880403431718E-03
     13    6.2510796201534919E+00    3.5541886949243528E-04    1.8663327822097207E-03
     14    7.3219815623487303E+00    1.1391797390235320E-04    7.2018733063080079E-04
     15    8.4803470384384898E+00    3.3626921852280485E-05    2.5154104528950883E-04
     16    9.7270532050263174E+00    9.1275004737954315E-06    7.9656182263715647E-05
     17    1.1063058943974024E+01    2.2747521485648912E-06    2.2890964953940055E-05
     18    1.2489409259214181E+01    5.1974080675588721E-07    5.9715148375325388E-06
     19    1.4007240203032421E+01    1.0870682275432846E-07    1.4139757552740206E-06
     20    1.5617784392362337E+01    2.0781411668074425E-08    3.0377819513283488E-07
     21    1.7322377185511300E+01    3.6253411354337607E-09    5.9174185438699646E-08
     22    1.9122463601361471E+01    5.7617576666898043E-10    1.0441724359445138E-08
     23    2.1019606076855801E+01    8.3278519180498397E-11    1.6672031486574581E-09
     24    2.3015493174962749E+01    1.0926455457022544E-11    2.4055130554061432E-10
     25    2.5111949374915206E+01    1.2987961164989623E-12    3.1316506209359453E-11
     26    2.7310946100090163E+01    1.3957560832362680E-13    3.6723663074902403E-12
     27    2.9614614167392087E+01    1.3530513206001898E-14    3.8717041487654765E-13
     28    3.2025257876641568E+01    1.1803622431724147E-15    3.6621042982275268E-14
     29    3.4545371000815393E+01    9.2426358624569546E-17    3.1004764903155989E-15
     30    3.7177654990058969E+01    6.4781895579026120E-18    2.3436570678600331E-16
     31    3.9925039766833649E+01    4.0522067451415906E-19    1.5773230869806797E-17
     32    4.2790707569837245E+01    2.2547941140242051E-20    9.4229441449375811E-19
     33    4.5778120405034564E+01    1.1121898413067286E-21    4.9801770627288974E-20
     34    4.8891051789398432E+01    4.8445701784400846E-23    2.3201156131304930E-21
     35    5.2133623635070798E+01    1.8558184300614296E-24    9.4894721137789095E-23
     36    5.5510349329901210E+01    6.2237554912650776E-26    3.3925908597275030E-24
     37    5.9026184340275961E+01    1.8182375552425717E-27    1.0550538755491816E-25
     38    6.2686586015505320E+01    4.6021369432286146E-29    2.8389011640360664E-27
     39    6.6497584740436309E+01    1.0031452384670418E-30    6.5703590263460258E-29
     40    7.0465869208236299E+01    1.8705361035865736E-32    1.2993841632102887E-30
     41    7.4598889432116778E+01    2.9617118471130566E-34    2.1797870276546421E-32
     42    7.8904982277042592E+01    3.9490283520235591E-36    3.0764898377593409E-34
     43    8.3393525911180987E+01    4.3929714967147458E-38    3.6195241084164594E-36
     44    8.8075131867608363E+01    4.0343025748790580E-40    3.5128742870142594E-38
     45    9.2961886706407881E+01    3.0221054424438966E-42    2.7791851831284429E-40
     46    9.8067660113998770E+01    1.8214069594871846E-44    1.7679971167277396E-42
     47    1.0340850355275380E+02    8.6926351488128957E-47    8.9019975751999803E-45
     48    1.0900317476836658E+02    3.2245979154353587E-49    3.4826681221847557E-47
     49    1.1487384116834576E+02    9.0960666306034370E-52    1.0358040467500258E-49
     50    1.2104704398825211E+02    1.9006006035678953E-54    2.2816148426061365E-52
     51    1.2755505409081564E+02    2.8493546005503881E-57    3.6060022559656875E-55
     52    1.3443783665445508E+02    2.9464496594179803E-60    3.9316786836399125E-58
     53    1.4174600244528153E+02    1.9993751530689449E-63    2.8140406018287687E-61
     54    1.4954543969734198E+02    8.3441999181190835E-67    1.2394928457595241E-64
     55    1.5792499205036245E+02    1.9628485176567675E-70    3.0801998802935395E-68
     56    1.6701011193496592E+02    2.3016154942507215E-74    3.8209144583181421E-72
     57    1.7698953256367568E+02    1.1188843125080202E-78    1.9691192715111611E-76
     58    1.8817479821482118E+02    1.6657370280988579E-83    3.1178399211335966E-81
     59    2.0116371482462759E+02    4.2641854141818362E-89    8.5353519320362956E-87
     60    2.1750053138186360E+02    4.3110332938885480E-96    9.3334099893177633E-94

      n            y(n)                      z(n)
      1    1.6639299774550814E-04    2.3669631665454139E+02
      2    4.6341142283831543E-02    2.9813657065025434E+00
      3    1.6707254284749853E-01    6.8933297156634643E-01
      4    3.6533287494236438E-01    1.5778266726242465E-01
      5    6.4269695876098931E-01    2.1409008923607128E-02
      6    1.4384439370399627E+00    6.0520811404725641E-03
      7    1.9581858711928759E+00    1.2058120681654646E-02
      8    2.5599601409761465E+00    1.2766520815926795E-02
      9    3.2443413809214898E+00    1.0023587935325479E-02
     10    4.0119230175797904E+00    6.4622376770094069E-03
     11    4.8633325381316741E+00    3.5746844894562592E-03
     12    5.7992422180701491E+00    1.7352638174816676E-03
     13    6.8203772628219310E+00    7.4870684957802590E-04
     14    7.9275224744682813E+00    2.8934977620691824E-04
     15    9.1215281121320206E+00    1.0064414458771755E-04
     16    1.0403315370694099E+01    3.1602524451172296E-05
     17    1.1773881763665852E+01    8.9748763397875993E-06
     18    1.3234306615598950E+01    2.3076079420186304E-06
     19    1.4785756822949079E+01    5.3742692212873998E-07
     20    1.6429493016578373E+01    1.1337095490536216E-07
     21    1.8166876246710004E+01    2.1654780076610100E-08
     22    1.9999375307986959E+01    3.7427355609520087E-09
     23    2.1928574826038911E+01    5.8480057291766118E-10
     24    2.3956184236451715E+01    8.2509973513306514E-11
     25    2.6084047801821544E+01    1.0497481394236034E-11
     26    2.8314155832746696E+01    1.2024034614277465E-12
     27    3.0648657304680622E+01    1.2376996296965021E-13
     28    3.3089874095470954E+01    1.1426134909227428E-14
     29    3.5640317109511329E+01    9.4389541619577060E-16
     30    3.8302704605626424E+01    6.9599724565306234E-17
     31    4.1079983109648609E+01    4.5683514572511577E-18
     32    4.3975351372534938E+01    2.6611610702838748E-19
     33    4.6992287935366825E+01    1.3712149707817708E-20
     34    5.0134582989797671E+01    6.2270880930557071E-22
     35    5.3406375384739505E+01    2.4824259953855050E-23
     36    5.6812195838613654E+01    8.6491399520460990E-25
     37    6.0357017686920464E+01    2.6210420988886093E-26
     38    6.4046316848952557E+01    6.8716217439111040E-28
     39    6.7886143165887546E+01    1.5493834925600456E-29
     40    7.1883205889194414E+01    2.9848167679853325E-31
     41    7.6044976947085928E+01    4.8769773375225333E-33
     42    8.0379816781787824E+01    6.7033282559504621E-35
     43    8.4897129172997026E+01    7.6792816018762807E-37
     44    8.9607553759222341E+01    7.2559468471727771E-39
     45    9.4523208276388104E+01    5.5876639943734932E-41
     46    9.9657997391697577E+01    3.4592607231675349E-43
     47    1.0502801230497208E+02    1.6946191401311124E-45
     48    1.1065205651188258E+02    6.4484747880988463E-48
     49    1.1655235087364008E+02    1.8648335472863567E-50
     50    1.2275550011344876E+02    3.9925926467721430E-53
     51    1.2929385191193307E+02    6.1304306647582302E-56
     52    1.3620746640408382E+02    6.4902139678646217E-59
     53    1.4354707472647328E+02    4.5075610685846540E-62
     54    1.5137872240408234E+02    1.9250167528659856E-65
     55    1.5979146651909772E+02    4.6334904168141081E-69
     56    1.6891106359379972E+02    5.5599032230342371E-73
     57    1.7892670960196176E+02    2.7668054009446115E-77
     58    1.9015072358876742E+02    4.2196360768663594E-82
     59    2.0318242385088979E+02    1.1082138004293830E-87
     60    2.1957004920206700E+02    1.1534436628678997E-94


  Nodes and weights from glqfd()
      n            x(n)                      w(n)
      1    1.0733325827260254E-03    1.2709183561396522E+01
      2    6.4901214786658473E-02    1.2814151667003961E+00
      3    2.1135548347255798E-01    6.5208066379464313E-01
      4    4.4018455817383834E-01    3.7529965524978831E-01
      5    7.5152990299354827E-01    2.1741145868111136E-01
      6    1.1456034799723711E+00    1.2193759755221745E-01
      7    1.6226775820259001E+00    6.5025980270531011E-02
      8    2.1830843590916018E+00    3.2640733071532667E-02
      9    2.8272167636572960E+00    1.5325688659122403E-02
     10    3.5555299909818299E+00    6.7018227282345548E-03
     11    4.3685432532286059E+00    2.7208021875844974E-03
     12    5.2668418610651040E+00    1.0229317566631455E-03
     13    6.2510796201534919E+00    3.5541886949243528E-04
     14    7.3219815623487303E+00    1.1391797390235320E-04
     15    8.4803470384384898E+00    3.3626921852280485E-05
     16    9.7270532050263174E+00    9.1275004737954315E-06
     17    1.1063058943974024E+01    2.2747521485648912E-06
     18    1.2489409259214181E+01    5.1974080675588721E-07
     19    1.4007240203032421E+01    1.0870682275432846E-07
     20    1.5617784392362337E+01    2.0781411668074425E-08
     21    1.7322377185511300E+01    3.6253411354337607E-09
     22    1.9122463601361471E+01    5.7617576666898043E-10
     23    2.1019606076855801E+01    8.3278519180498397E-11
     24    2.3015493174962749E+01    1.0926455457022544E-11
     25    2.5111949374915206E+01    1.2987961164989623E-12
     26    2.7310946100090163E+01    1.3957560832362680E-13
     27    2.9614614167392087E+01    1.3530513206001898E-14
     28    3.2025257876641568E+01    1.1803622431724147E-15
     29    3.4545371000815393E+01    9.2426358624569546E-17
     30    3.7177654990058969E+01    6.4781895579026120E-18
     31    3.9925039766833649E+01    4.0522067451415906E-19
     32    4.2790707569837245E+01    2.2547941140242051E-20
     33    4.5778120405034564E+01    1.1121898413067286E-21
     34    4.8891051789398432E+01    4.8445701784400846E-23
     35    5.2133623635070798E+01    1.8558184300614296E-24
     36    5.5510349329901210E+01    6.2237554912650776E-26
     37    5.9026184340275961E+01    1.8182375552425717E-27
     38    6.2686586015505320E+01    4.6021369432286146E-29
     39    6.6497584740436309E+01    1.0031452384670418E-30
     40    7.0465869208236299E+01    1.8705361035865736E-32
     41    7.4598889432116778E+01    2.9617118471130566E-34
     42    7.8904982277042592E+01    3.9490283520235591E-36
     43    8.3393525911180987E+01    4.3929714967147458E-38
     44    8.8075131867608363E+01    4.0343025748790580E-40
     45    9.2961886706407881E+01    3.0221054424438966E-42
     46    9.8067660113998770E+01    1.8214069594871846E-44
     47    1.0340850355275380E+02    8.6926351488128957E-47
     48    1.0900317476836658E+02    3.2245979154353587E-49
     49    1.1487384116834576E+02    9.0960666306034370E-52
     50    1.2104704398825211E+02    1.9006006035678953E-54
     51    1.2755505409081564E+02    2.8493546005503881E-57
     52    1.3443783665445508E+02    2.9464496594179803E-60
     53    1.4174600244528153E+02    1.9993751530689449E-63
     54    1.4954543969734198E+02    8.3441999181190835E-67
     55    1.5792499205036245E+02    1.9628485176567675E-70
     56    1.6701011193496592E+02    2.3016154942507215E-74
     57    1.7698953256367568E+02    1.1188843125080202E-78
